Wavelength	I1	I1 dark	R1	R1dark	XCorrect	I1c	R1c	I1c/R1c	Abs	Percent T
nm	uA	uA	uA	uA		uA	uA	uA/uA	OD	T*100
	Abs Detector Raw	Dark Offset for Abs Detector	Ref Detector Raw	Dark Offset for Ref Detector	Linear interp	Dark subtracted Abs Detector	Corrected Ref Detector	Corrected Intensity 	-Log(T)	% Transmittance
600	0.909099707060776	0.00990013239910069	1.17845894853818	0.00377545671671028	0.984116673469543	0.899199574661675	1.15602561035093	0.777837070918097	1.24644643127675E-4	99.9713036284778
595	0.966909130047555		1.25616153550797		0.982812881469727	0.957008997648454	1.23086117080941	0.777511729465906	1.1141591956692E-4	99.9743488269244
590	1.02777559342739		1.33817601577108		0.982779562473297	1.01787546102829	1.31142159759157	0.776161886381633	1.56405335732095E-4	99.9639928246878
585	1.07870687496216		1.40732130907389		0.981987595558167	1.06880674256306	1.37826461681186	0.775472815253267	1.73745826275189E-4	99.96000154656
580	1.11722936321155		1.46009582912668		0.980610847473145	1.10732923081245	1.42808355458135	0.775395268197086	1.4755245798064E-4	99.9660305619025
575	1.15868905603905		1.517077804607		0.979297995567322	1.14878892363995	1.48197395597628	0.775174839616639	1.40613359184622E-4	99.9676278184484
570	1.20387641913974		1.57908730265024		0.978484988212585	1.19397628674064	1.54141899299942	0.774595546157965	1.45632700011827E-4	99.9664724533285
565	1.2480574345882		1.63969057755457		0.978631198406219	1.2381573021891	1.60095757519641	0.773385454662786	1.50683141741858E-4	99.9653099427982
560	1.30552180691718		1.71789626632898		0.979763388633728	1.29562167451808	1.67943281295331	0.771463832625556	1.72581088811668E-4	99.9602696303594
555	1.37386522461284		1.81043338265844		0.981100916862488	1.36396509221374	1.77251374759832	0.769508893266335	1.67258189529818E-4	99.9614947937688
550	1.44597943636082		1.90793210663409		0.982443392276764	1.43607930396172	1.87072611857119	0.767658766136521	1.70610637396581E-4	99.9607231643318
545	1.5188574353372		2.00595769889377		0.982752025127411	1.50895730293809	1.96764865317364	0.766883508650937	1.25594013619745E-4	99.9710850908129
540	1.58872469763126		2.09880969376201		0.982404112815857	1.57882456523216	2.05817025096333	0.767101052254151	1.39157079517922E-4	99.9679630312449
535	1.6672769489043		2.20387893528553		0.983403861522675	1.6573768165052	2.16359025657405	0.766030819130042	1.27162130172324E-4	99.9707241236884
530	1.75573221466413		2.32161384326235		0.985359311103821	1.74583208226503	2.2839036358166	0.764407068182108	1.53118419246088E-4	99.9647493955242
525	1.85423170584769		2.45203646359082		0.986455500125885	1.84433157344859	2.4151005359747	0.763666582809252	1.67897777131046E-4	99.9613475800964
520	1.95567806286421		2.58538476750134		0.98695296049118	1.94577793046511	2.54792695211049	0.763671002755156	1.50867700844731E-4	99.9652674612453
515	2.06517765654288		2.72857940071823		0.987989187240601	2.05527752414378	2.69207683402404	0.763454258871061	1.53714999014174E-4	99.9646120764733
510	2.16688494129273		2.86069033524893		0.989577054977417	2.15698480889363	2.82713741181908	0.762957187675481	1.60966987078919E-4	99.9629428493676
505	2.30890176933854		3.04425135990608		0.991617441177368	2.29900163693944	3.01498893508209	0.762524071046661	1.80570354363475E-4	99.9584307817752
500	2.49908420510204		3.28850099271917		0.993805527687073	2.48918407270294	3.26437839461413	0.76252926952642	1.70062883426976E-4	99.9608492398859
495	2.92240364799062		3.83859149345081		0.99499124288559	2.91250351559152	3.81560837462765	0.763313010569576	1.69677897359186E-4	99.9609378515376
490	3.11879232884651		4.08359280594839		0.99444317817688	3.10889219644741	4.05714653115113	0.766275551690595	1.90639209514895E-4	99.9561133328194
485	3.53375668509856		4.61219568469558		0.996731162071228	3.52385655269945	4.59335604914593	0.767163815518866	1.82004026035059E-4	99.9581008044443
480	3.80988065128037		4.9498922824673		0.998985171318054	3.79998051888127	4.94109736453156	0.769055988687551	1.76210706706468E-4	99.9594342154914
475	4.76545001269648		6.17176825170602		1.00243234634399	4.75554988029738	6.18299548971398	0.76913364860264	1.93921042259298E-4	99.9553579973961
470	6.03268511017192		7.76547237619727		1.00769698619843	6.02278497777282	7.82143859354616	0.770035448816604	1.81202614095607E-4	99.9582852592156
465	6.14939500960792		7.8771646926455		1.01307439804077	6.13949487720882	7.97632906072925	0.76971434233275	2.31098273098525E-4	99.9468018113915
460	5.78059735239015		7.39091808570172		1.01598358154297	5.77069721999105	7.50521562556494	0.768891595910235	2.01528801152922E-4	99.9536070435272
455	5.34937151182809		6.85241180611521		1.01623702049255	5.33947137942899	6.95983779814973	0.767183307181166	2.07874506374957E-4	99.9521465794441
450	4.64740581883223		5.98390481251528		1.01419520378113	4.63750568643313	6.06501851064163	0.764631744865443	2.23399653240213E-4	99.9485735567975
445	3.70010857652369		4.80012952671807		1.01049888134003	3.69020844412459	4.84671042224706	0.761384139474484	2.03086052024211E-4	99.9532486402569
440	3.51023335511442		4.57619441042537		1.00642335414886	3.50033322271532	4.60178921996531	0.760646143358498	2.14202146286949E-4	99.9506902943405
435	3.54618637010748		4.61719294541779		1.00416374206543	3.53628623770838	4.63262656916418	0.763343685253353	2.20654475257785E-4	99.9492053343174
430	3.85967504805406		4.99494292681854		1.00603294372559	3.84977491565496	5.02127890257393	0.766692109789311	2.11888865773181E-4	99.9512226856317
425	3.96846645386935		5.12415470608739		1.00844466686249	3.95856632147025	5.16361914634121	0.76662631562887	2.14186472185824E-4	99.9506939016561
420	3.61278606466558		4.69861674147916		1.00632703304291	3.60288593226648	4.72454570070235	0.762588862614003	2.10230694143024E-4	99.9516043082522
415	3.19935028262618		4.21817081810596		1.00108110904694	3.18945015022708	4.21895158234181	0.755981690706371	2.31843640767327E-4	99.946630275593
410	2.85049121175453		3.80283281439447		0.99567312002182	2.84059107935543	3.78261929246087	0.750958756282189	2.53106316297364E-4	99.9417370963403
405	2.65062406655707		3.56407362589538		0.991254270076752	2.64072393415797	3.5291607629448	0.748258328689593	2.37082549032257E-4	99.9454246234582
400	2.70557512590781		3.64363438729622		0.991591811180115	2.69567499350871	3.60925430941346	0.746878652046767	2.58871959470829E-4	99.9404102902368
395	2.73777913456819		3.67047618894678		0.998634338378906	2.72787900216909	3.66169325976403	0.744977475897279	2.53493134327205E-4	99.9416480801307
390	2.74353762575611		3.64958968024118		1.01226460933685	2.73363749335701	3.69052871069074	0.740717037490645	2.55256166910818E-4	99.9412423645812
385	2.82920372404662		3.73025984593446		1.03263711929321	2.81930359164752	3.84810610477295	0.732647051532866	2.76114604366313E-4	99.9364424691637
380	2.89678525209689		3.79009281200397		1.05682492256165	2.88688511969779	4.00147454579528	0.721455325195386	2.75145475664853E-4	99.9366654777139
375	2.90115791809504		3.7753973457541		1.07931578159332	2.89125778569594	4.07077102704088	0.710248197820563	3.0575270860252E-4	99.9296226136109
370	2.9272808232641		3.79586466012544		1.09493815898895	2.917380690865	4.15210317110224	0.702627215809413	3.15504008285218E-4	99.9273788992689
365	2.9934541115739		3.87216866860961		1.09079897403717	2.9835539791748	4.21963934670513	0.707063740294413	3.38271479497343E-4	99.9221404396904
360	3.09960165997788		4.00050797962023		1.06893277168274	3.08970152757878	4.2722383733818	0.72320438551116	3.35617008632657E-4	99.9227511801722
355	3.20952502623787		4.13203961239543		1.0409619808197	3.19962489383877	4.2973660328423	0.74455488999212	3.22724441301482E-4	99.9257175543105
350	3.29107613675185		4.22667005635325		1.01178658008575	3.28117600435275	4.27266808502885	0.767945447447644	3.2376451238951E-4	99.9254782472742
345	3.34360375372946		4.28415012448294		0.987797260284424	3.33370362133036	4.22814236981034	0.788455858330027	3.44582169050617E-4	99.9206884916398
340	3.37795566277189		4.32064243390744		0.968130171298981	3.36805553037279	4.17928916610258	0.805891958300098	3.34867241185947E-4	99.9229236872931
335	3.34174117805331		4.27857450438804		0.952541172504425	3.33184104565421	4.07192209708964	0.818247738097839	3.51476812887296E-4	99.9191022129295
330	3.160800744206		4.07327754720055		0.939315378665924	3.1509006118069	3.8225458971046	0.824293729002329	3.72743276239226E-4	99.9142095099635
325	2.91511626520724		3.79574002633688		0.926237106323242	2.90521613280814	3.51225829024524	0.827164716466591	3.80650491061823E-4	99.9123903850167
320	2.72123438609914		3.5727719364075		0.914670467376709	2.71133425370004	3.2644556781446	0.830562433992384	3.85531437769271E-4	99.9112674964404
315	2.58397783757533		3.41557895363718		0.905307412147522	2.57407770517622	3.08873099455293	0.833377108500444	4.18599885873232E-4	99.9036602508492
310	2.45329459713071		3.26340505043664		0.899488806724548	2.44339446473161	2.93200033361916	0.833354088236261	4.14283297599589E-4	99.9046532294143
305	2.30951276542985		3.09686237287946		0.899677276611328	2.29961263303074	2.78278001305543	0.826372412566605	4.58447196711149E-4	99.8944943283053
300	2.11433871957886		2.86749197584676		0.907451450824738	2.10443858717976	2.59868371003533	0.809809435081715	4.58677143832773E-4	99.8944414369002
295	1.89151722144578		2.60096210020277		0.928298592567444	1.88161708904668	2.41096470578307	0.780441573671039	4.8781070865223E-4	99.8877404915885
290	1.62581608603286		2.27894219914575		0.961205065250397	1.61591595363376	2.18690179711204	0.738906500405135	4.93295697737689E-4	99.8864789519434
285	1.31973643271487		1.90760077851042		0.990005016326904	1.30983630031577	1.88479661878595	0.694948350002599	5.09961447396294E-4	99.882645951107
280	1.05772189640832		1.58909718542274		1.00794303417206	1.04782176400922	1.59791399337085	0.655743530850997	5.68863183975117E-4	99.8691001599413
275	0.874892827924999		1.36597440921469		1.00567150115967	0.864992695525898	1.36992466543677	0.6314162503601	5.40863883524942E-4	99.8755390054671
270	0.780581047295991		1.25694140672067		0.977289319038391	0.770680914896891	1.22470569792147	0.629278459473866	5.85329900453202E-4	99.8653135933386
265	0.715579177438538		1.18460844253216		0.928679645061493	0.705679045039438	1.096615558144	0.643506322519978	6.07861936308463E-4	99.860132522545
260	0.640707713809487		1.09138377432557		0.865367650985718	0.630807581410387	0.941181055001706	0.6702297905999	6.11702274659516E-4	99.8592494926722
255	0.548087033332413		0.964931378590614		0.799651682376862	0.538186900933312	0.76858994995295	0.700226305283146	6.37786301579337E-4	99.8532520571968
250	0.448890803107444		0.82199079871744		0.732924580574036	0.438990670708343	0.599690136355126	0.732029166556744	6.20588302667042E-4	99.8572063098853
245	0.351692109190411		0.672609867307501		0.678074300289154	0.34179197679131	0.453519424970659	0.753643522134521	6.24902488006288E-4	99.8562143554081
240	0.2599259413442		0.517252956612358		0.640305876731873	0.250025808945099	0.328782660752773	0.760459229731415	6.8121085126888E-4	99.8432683573944
