Wavelength	I1	I1 dark	R1	R1dark	XCorrect	I1c	R1c	I1c/R1c	Abs	Percent T
nm	uA	uA	uA	uA		uA	uA	uA/uA	OD	T*100
	Abs Detector Raw	Dark Offset for Abs Detector	Ref Detector Raw	Dark Offset for Ref Detector	Linear interp	Dark subtracted Abs Detector	Corrected Ref Detector	Corrected Intensity 	-Log(T)	% Transmittance
600	0.907362337682953	0.00989592070630746	1.17683990313449	0.00376459593889876	0.984116673469543	0.897466416976645	1.15444296904659	0.777402124695538	3.67558723276441E-4	99.9154022803636
595	0.964646476248002		1.25383030871064		0.982812881469727	0.954750555541694	1.22858068519571	0.777116690052479	3.32129035221076E-4	99.9235536985404
590	1.02481371416677		1.33491109024701		0.982779562473297	1.01491779346046	1.30822356926399	0.775798431785977	3.59820753451143E-4	99.9171825223143
585	1.07594367734137		1.40433270923231		0.981987595558167	1.06604775663506	1.37534051398844	0.775115504700402	3.73899538495087E-4	99.9139434995022
580	1.11360245587741		1.45603915616926		0.980610847473145	1.10370653517111	1.42411618727118	0.775011579136651	3.62507707181239E-4	99.9165643426529
575	1.1550071969229		1.51294557500926		0.979297995567322	1.1451112762166	1.47793790775193	0.774803373139275	3.48778665112096E-4	99.9197229837475
570	1.20028054818243		1.57515403789545		0.978484988212585	1.19038462747612	1.53758097959024	0.774193127566758	3.71316397825694E-4	99.9145377795338
565	1.2453088847945		1.63693861528529		0.978631198406219	1.23541296408819	1.59827504775886	0.772966433919192	3.86047941362963E-4	99.9111486726925
560	1.30203006498777		1.7140712785513		0.979763388633728	1.29213414428147	1.67569587095924	0.771103018557775	3.75748376333869E-4	99.9135181561145
555	1.37056547059771		1.80682500437696		0.981100916862488	1.3606695498914	1.76898421987704	0.76918128189181	3.52194464047283E-4	99.9189371014594
550	1.44322783480932		1.90506087068365		0.982443392276764	1.43333191410301	1.86791596188341	0.767342826632195	3.49386719359813E-4	99.9195830865764
545	1.51615071903942		2.00326397209789		0.982752025127411	1.50625479833311	1.96501206116124	0.766537177101586	3.21769642065282E-4	99.9259372418903
540	1.58494611549304		2.09524366106141		0.982404112815857	1.57505019478673	2.05467763544462	0.766568033649668	4.41030606377936E-4	99.8985004956489
535	1.6627879523402		2.19868275366567		0.983403861522675	1.65289203163389	2.15849099203474	0.765762765623481	2.79159319743108E-4	99.9357418455795
530	1.75216075227605		2.31760596363969		0.985359311103821	1.74226483156975	2.27996513608118	0.764162926878946	2.91848372093867E-4	99.932822003427
525	1.84770451471166		2.44428380615109		0.986455500125885	1.83780859400536	2.4074635980767	0.763379598127076	3.31135624005273E-4	99.9237822653231
520	1.95059857557982		2.57967873969211		0.98695296049118	1.94070265487351	2.54230609014834	0.763363098721237	3.26005930658552E-4	99.9249625275866
515	2.0588989175543		2.72125317760297		0.987989187240601	2.04900299684799	2.6848493351339	0.763172432074592	3.14063071893451E-4	99.9277104467365
510	2.16175537161108		2.85489252765491		0.989577054977417	2.15185945090477	2.82141078203139	0.762689171179622	3.13555541736613E-4	99.9278272254623
505	2.30315581233025		3.03769001960027		0.991617441177368	2.29325989162394	3.00849336533405	0.762261907587522	3.29910847230127E-4	99.9240640660493
500	2.49198983989602		3.28005249177637		0.993805527687073	2.48209391918971	3.25599302117753	0.762315491171434	2.91836276918745E-4	99.9328247865731
495	2.91630270074937		3.83157152765855		0.99499124288559	2.90640678004307	3.80863437651781	0.763109947744672	2.85227869108937E-4	99.9343454181071
490	3.11135346413015		4.07467251057388		0.99444317817688	3.10145754342384	4.04828660469503	0.766116099543669	2.81019743409624E-4	99.9353137433844
485	3.52748558160799		4.6048552135335		0.996731162071228	3.51758966090168	4.58605039807009	0.767019407894418	2.63761450664352E-4	99.9392851205062
480	3.80453068792285		4.94376926247224		0.998985171318054	3.79463476721654	4.93499140810879	0.768924290522875	2.50588495691658E-4	99.9423165098602
475	4.7599583232653		6.16504471901804		1.00243234634399	4.75006240255899	6.17626649026084	0.76908313623598	2.22443994722622E-4	99.948793492382
470	6.02291309605081		7.75393328688791		1.00769698619843	6.01301717534451	7.80982163239871	0.769930154409643	2.40591966551071E-4	99.9446169944839
465	6.13187705069354		7.85492513462889		1.01307439804077	6.12198112998723	7.95380973665483	0.769691673887335	2.43888635945498E-4	99.9438583315877
460	5.77254385144577		7.3811241550768		1.01598358154297	5.76264793073946	7.49527618722318	0.768837303228767	2.32196120980452E-4	99.9465491573732
455	5.3359762335613		6.83526833450402		1.01623702049255	5.326080312855	6.94242700476316	0.767178439067606	2.10630303515376E-4	99.9515123393667
450	4.63433952249772		5.96700019832501		1.01419520378113	4.62444360179141	6.04788494695686	0.764638157364139	2.19757506363787E-4	99.9494117643424
445	3.69266133778392		4.79032741005801		1.01049888134003	3.68276541707761	4.83681636913114	0.761402777368445	1.9245510371157E-4	99.9556953921035
440	3.5027227179374		4.56584908820108		1.00642335414886	3.4928267972311	4.59138837661303	0.760734338010344	1.63849915346841E-4	99.962279278797
435	3.53949830128655		4.60806181752459		1.00416374206543	3.52960238058024	4.62346832760895	0.763410091835882	1.82874955330723E-4	99.9579003497881
430	3.85317404954488		4.98602980429556		1.00603294372559	3.84327812883858	5.01232293398462	0.766765864741142	1.70112215679277E-4	99.9608378851629
425	3.96014391972292		5.1126014834773		1.00844466686249	3.95024799901661	5.15197931310846	0.76674376175498	1.47658234362209E-4	99.9660062142671
420	3.60275916040877		4.68474689778458		1.00632703304291	3.59286323970246	4.71059903154273	0.76271896963512	1.36141044472823E-4	99.9686572789026
415	3.1932218182952		4.21048035915231		1.00108110904694	3.1833258975889	4.21126368168291	0.755907522826205	2.74453510363854E-4	99.936824707828
410	2.84332762779878		3.79370789988015		0.99567312002182	2.83343170709247	3.77354467414099	0.750867407641721	3.05938277128225E-4	99.9295799149593
405	2.64480899577952		3.55651027631623		0.991254270076752	2.63491307507321	3.52167432617076	0.748198961923388	2.71540811418322E-4	99.9374949600927
400	2.70109659565226		3.6378913111473		0.991591811180115	2.69120067494596	3.60357029159154	0.746815090918449	2.95833013151983E-4	99.9319051264795
395	2.72967610725682		3.65980204104022		0.998634338378906	2.71978018655051	3.65104453507726	0.744932076401789	2.79960177710127E-4	99.9355575598826
390	2.73810700321922		3.64243676034788		1.01226460933685	2.72821108251291	3.68329905701034	0.740697684408864	2.66603342690568E-4	99.9386311501242
385	2.82456667816671		3.72393239722928		1.03263711929321	2.81467075746041	3.84158336161186	0.732685065639034	2.53581396565619E-4	99.9416277688602
380	2.89004243962384		3.78101544143478		1.05682492256165	2.88014651891753	3.99189283228709	0.721498957993668	2.48880633111774E-4	99.9427095336845
375	2.89481510073758		3.76662677205868		1.07931578159332	2.88491918003127	4.06131653064667	0.710340885341413	2.49080896351604E-4	99.942663447798
370	2.9214086479946		3.78782399609507		1.09493815898895	2.91151272728829	4.14331103311184	0.702701946346903	2.69315455501404E-4	99.9380070482605
365	2.98657617947248		3.86270626386226		1.09079897403717	2.97668025876617	4.20932961224009	0.707162549140946	2.77585099668795E-4	99.9361040908823
360	3.09347849349844		3.99182133414713		1.06893277168274	3.08358257279214	4.26296454280094	0.723342298964114	2.52805921479388E-4	99.9418062245276
355	3.20213850038848		4.12163411194873		1.0409619808197	3.19224257968217	4.28654560814266	0.744712146213546	2.31007498934617E-4	99.9468227017981
350	3.28583781401888		4.2187093703499		1.01178658008575	3.27594189331257	4.26462455855163	0.768166540415262	1.98748293200089E-4	99.9542469841679
345	3.33958864632363		4.27750381103294		0.987797260284424	3.32969272561732	4.22158788784	0.78872993150475	1.9364437924109E-4	99.9554216729918
340	3.37265059443371		4.31201934556299		0.968130171298981	3.3627546737274	4.17095140875322	0.806232042567141	1.51634781808656E-4	99.965090895829
335	3.33640529916838		4.2694478637995		0.952541172504425	3.32650937846208	4.06323894150045	0.818684164617127	1.19900125720711E-4	99.972395786451
330	3.15351067099294		4.06161662683699		0.939315378665924	3.14361475028664	3.81160281697333	0.824748774003394	1.33060505617796E-4	99.9693663793818
325	2.91144560115941		3.78853296093599		0.926237106323242	2.9015496804531	3.50559289849865	0.827691567294009	1.04120840590131E-4	99.9760281641625
320	2.71719965955276		3.56505590372349		0.914670467376709	2.70730373884645	3.25740798495594	0.831122091966958	9.29892909249643E-5	99.978590716605
315	2.58185331732014		3.41024663676395		0.905307412147522	2.57195739661383	3.08391344090634	0.833991435199931	9.85762069409829E-5	99.9773045653409
310	2.448941859111		3.25502193279436		0.899488806724548	2.43904593840469	2.92446958228255	0.834013098710712	7.09820383282005E-5	99.9836571172621
305	2.30689554986413		3.09054113022893		0.899677276611328	2.29699962915782	2.77710270587781	0.827120878279426	6.52740850061263E-5	99.9849712159255
300	2.11089940684847		2.85998593339628		0.907451450824738	2.10100348614216	2.59188219655227	0.810609173880247	2.99951064308344E-5	99.9930936100091
295	1.89167470557601		2.59834546569174		0.928298592567444	1.8817787848697	2.40854576969398	0.781292516234305	1.45423096285655E-5	99.9966515655245
290	1.62483902793129		2.27487771674012		0.961205065250397	1.61494310722498	2.18300543547077	0.739779700492006	-1.96272242138798E-5	100.004519437513
285	1.31831658408774		1.90324354708251		0.990005016326904	1.30842066338143	1.88049369003955	0.69578572388292	-1.30240841864908E-5	100.002998951177
280	1.05725794743556		1.58647336951526		1.00794303417206	1.04736202672925	1.59528028344929	0.656537937311344	4.30516220019214E-5	99.9900874890168
275	0.874772605757511		1.3640555200622		1.00567150115967	0.864876685051203	1.36800581567695	0.632217111316317	-9.62734466439115E-6	100.002216802602
270	0.780223685236872		1.25462812181781		0.977289319038391	0.770327764530565	1.22245556341616	0.630147865970587	-1.4274056372771E-5	100.003286776955
265	0.715573466378991		1.1826976045271		0.928679645061493	0.705677545672683	1.09485108796697	0.644542032636653	-9.05641494279098E-5	100.020855340467
260	0.640868001437021		1.08965735831684		0.865367650985718	0.630972080730713	0.939696469001393	0.671463713598117	-1.87118169245379E-4	100.04309483387
255	0.548172874701699		0.963032369198788		0.799651682376862	0.538276953995392	0.767080088737176	0.701721973883513	-2.88868234803888E-4	100.066536494842
250	0.449148864324674		0.820490571062302		0.732924580574036	0.439252943618367	0.59859854276124	0.733802226768148	-4.30051825453984E-4	100.099072136301
245	0.352029856076268		0.67149108557369		0.678074300289154	0.342133935369961	0.452768172243644	0.755649262346673	-5.29389678519225E-4	100.121970802168
240	0.260135394163187		0.51611385291818		0.640305876731873	0.250239473456879	0.328060240183042	0.76278513152724	-6.45072870658837E-4	100.148643883253
