Wavelength	I1	I1 dark	R1	R1dark	XCorrect	I1c	R1c	I1c/R1c	Abs	Percent T
nm	uA	uA	uA	uA		uA	uA	uA/uA	OD	T*100
	Abs Detector Raw	Dark Offset for Abs Detector	Ref Detector Raw	Dark Offset for Ref Detector	Linear interp	Dark subtracted Abs Detector	Corrected Ref Detector	Corrected Intensity 	-Log(T)	% Transmittance
600	0.906042031291744	0.00988857441574844	1.17503364154503	0.00375688321424391	0.984116673469543	0.896153456875996	1.15267298712069	0.777456804218635	3.37013167377447E-4	99.9224299515948
595	0.963334415096018		1.25206427844426		0.982812881469727	0.95344584068027	1.22685258806598	0.777147841521275	3.14720272776526E-4	99.9275592301482
590	1.02344415789782		1.33307701676801		0.982779562473297	1.01355558348208	1.30642865924092	0.775821608254512	3.46846684883115E-4	99.9201674825075
585	1.07466562070585		1.40259207813575		0.981987595558167	1.0647770462901	1.37363880964311	0.775150671934453	3.54195908338363E-4	99.9184766265195
580	1.11309745526908		1.45529846830601		0.980610847473145	1.10320888085333	1.42339742389935	0.775053307200128	3.39125114784436E-4	99.921944036133
575	1.15448344509394		1.51222253668207		0.979297995567322	1.14459487067819	1.47723739082319	0.774821215458384	3.38777764519121E-4	99.9220239540898
570	1.19927463754192		1.5737774180279		0.978484988212585	1.18938606312617	1.53624152450066	0.774218144840714	3.57282834229293E-4	99.9177664175504
565	1.24384661185112		1.63493137042026		0.978631198406219	1.23395803743537	1.59631824322408	0.773002527956553	3.65768826264209E-4	99.9158140715698
560	1.30039816558023		1.71190733690956		0.979763388633728	1.29050959116448	1.67358327680876	0.771105692227798	3.74242535873729E-4	99.913864589434
555	1.36754412356388		1.80282839672692		0.981100916862488	1.35765554914814	1.76507071140847	0.769179127143734	3.53411077779047E-4	99.9186571932732
550	1.44155368625644		1.90281662081469		0.982443392276764	1.43166511184069	1.8657186907444	0.767353148651509	3.43544785709806E-4	99.9209271688179
545	1.51452481023244		2.00104336785872		0.982752025127411	1.50463623581669	1.96283733754396	0.766561857692901	3.07786664611358E-4	99.9291546086306
540	1.58303508705829		2.09216010211377		0.982404112815857	1.57314651264254	2.05165591146477	0.766769175986924	3.27089580099345E-4	99.924713195626
535	1.66169534797445		2.19730910987233		0.983403861522675	1.6518067735587	2.15714773014722	0.765736509592678	2.9405041303986E-4	99.9323153066643
530	1.75006510775318		2.31478313406113		0.985359311103821	1.74017653333743	2.27719123447733	0.764176722178908	2.84008200370366E-4	99.9346260732231
525	1.84741551996184		2.44380138671943		0.986455500125885	1.83752694554609	2.40699532103462	0.763411099925301	3.13214297711794E-4	99.9279057431243
520	1.94801878799247		2.57613521065354		0.98695296049118	1.93813021357672	2.53881640576956	0.763399121406432	3.05512296220645E-4	99.9296779316641
515	2.05582797701481		2.71702888318626		0.987989187240601	2.04593940259906	2.68068339801503	0.763215605436294	2.89495331192355E-4	99.9333634486085
510	2.15940221793395		2.85169601643722		0.989577054977417	2.14951364351821	2.81825522020973	0.762710782225836	3.01249840404266E-4	99.9306587130116
505	2.30106684017063		3.03467117439749		0.991617441177368	2.29117826575488	3.00550747385105	0.762326590663613	2.9305958793251E-4	99.9325432984167
500	2.49043888409167		3.2778633853398		0.993805527687073	2.48055030967592	3.25382514004857	0.762348990160821	2.72752174914096E-4	99.937216208072
495	2.91510291559792		3.82985411799744		0.99499124288559	2.90521434118217	3.80693324303805	0.763137716295681	2.6942476092519E-4	99.9379818953625
490	3.1093891306419		4.07208314534985		0.99444317817688	3.09950055622615	4.0457192979786	0.766118538618036	2.79637087630887E-4	99.9356319062088
485	3.52271380428331		4.59834650262201		0.996731162071228	3.51282522986756	4.5795706505927	0.767064316261376	2.38334603798308E-4	99.9451364849483
480	3.79825946236197		4.93536065166599		0.998985171318054	3.78837088794622	4.92659903549953	0.76896269833376	2.28896004040976E-4	99.9473086341034
475	4.75317856987442		6.15649782696235		1.00243234634399	4.74328999545867	6.16770654068817	0.769052477475595	2.39757072113441E-4	99.9448091297481
470	6.01241241249902		7.73970142903462		1.00769698619843	6.00252383808327	7.79548800422134	0.769999753040842	2.01335242784453E-4	99.9536515913219
465	6.1286566161361		7.85069315466534		1.01307439804077	6.11876804172035	7.94953023966461	0.769701838630719	2.38153270782785E-4	99.9451782155194
460	5.76089593889466		7.36585215318469		1.01598358154297	5.75100736447891	7.47976792004513	0.768875107617539	2.10842014292246E-4	99.9514636148076
455	5.33284617742147		6.83127231401218		1.01623702049255	5.32295760300572	6.93837393876102	0.767176524353807	2.11714211290293E-4	99.9512628817046
450	4.62630245221733		5.95636953430499		1.01419520378113	4.61641387780158	6.0371112007031	0.764672659543515	2.00161612640165E-4	99.9539217047632
445	3.69038028066412		4.78719715372287		1.01049888134003	3.68049170624838	4.8336610423058	0.761429416344153	1.77260835817367E-4	99.9591925127085
440	3.49810820135428		4.55975061898717		1.00642335414886	3.48821962693853	4.5852584970378	0.760746559696038	1.56872751631558E-4	99.9638852370107
435	3.53327770072547		4.59980206658104		1.00416374206543	3.52338912630972	4.61518193003139	0.763434503715383	1.68987563526613E-4	99.9610967448117
430	3.84944574145431		4.98112971886592		1.00603294372559	3.83955716703856	5.00740104587042	0.766776443881008	1.64120255703567E-4	99.9622170541293
425	3.95980512089615		5.11200904451483		1.00844466686249	3.9499165464804	5.15138964905235	0.766767186249836	1.34390472731219E-4	99.9690602374169
420	3.60272464869016		4.68455123128146		1.00632703304291	3.59283607427441	4.71040988857449	0.762743828937084	1.21986313622539E-4	99.9719155576884
415	3.19207977484274		4.20874640896393		1.00108110904694	3.18219120042699	4.20953557796824	0.755948284908638	2.51034944406435E-4	99.9422137705953
410	2.840190083866		3.78934335399916		0.99567312002182	2.83030150945026	3.7692066924788	0.750901115372083	2.86442487901112E-4	99.9340659258058
405	2.6441151310362		3.5555382792498		0.991254270076752	2.63422655662045	3.52071847519941	0.748207098970402	2.66817662121369E-4	99.9385818315485
400	2.69706609273868		3.63222732679493		0.991591811180115	2.68717751832293	3.59796157896369	0.746861093246281	2.69082158649439E-4	99.9380607335586
395	2.72938319954314		3.65927916750715		0.998634338378906	2.71949462512739	3.65053007780419	0.744958832598684	2.64361628045715E-4	99.939147008558
390	2.73612594121542		3.63961900157008		1.01226460933685	2.72623736679967	3.68045454684013	0.740733877325095	2.45382809508361E-4	99.9435144791552
385	2.82184982270882		3.72023829812294		1.03263711929321	2.81196124829307	3.83777666219808	0.732705807503275	2.41286960520881E-4	99.9444570549649
380	2.88621502020554		3.77588800981464		1.05682492256165	2.87632644578979	3.98648218576184	0.721519954626389	2.362422378002E-4	99.9456180068596
375	2.89237540104029		3.76352509726638		1.07931578159332	2.88248682662455	4.05797716855942	0.710326033610443	2.58161173679095E-4	99.9405738573203
370	2.91893441948886		3.78462378614692		1.09493815898895	2.90904584507311	4.13981544607937	0.702699403623931	2.70886950442703E-4	99.9376454231538
365	2.98483948514348		3.86036277510209		1.09079897403717	2.97495091072773	4.20678175013697	0.707179760545189	2.67015073109435E-4	99.938536403917
360	3.09094515122341		3.98859732292954		1.06893277168274	3.08105657680766	4.25952653593834	0.723333110103265	2.58322945597931E-4	99.9405366301022
355	3.20028484561073		4.11916730775937		1.0409619808197	3.19039627119498	4.28398578742055	0.744726156786801	2.22837016624588E-4	99.9487030421259
350	3.28126662751371		4.21259594752277		1.01178658008575	3.27137805309796	4.25844688300805	0.768209195270542	1.74633400145238E-4	99.959797257078
345	3.33736171762159		4.27451284913083		0.987797260284424	3.32747314320584	4.21864104247576	0.788754745829969	1.79981204352077E-4	99.9585663822791
340	3.3721804821309		4.31122993882786		0.968130171298981	3.36229190771515	4.17019462719696	0.80626738277085	1.32598427163762E-4	99.969472744341
335	3.335679095558		4.26850484378374		0.952541172504425	3.32579052114225	4.06234802279672	0.818686755166933	1.18525896495079E-4	99.972712127577
330	3.15399392782695		4.06188211267577		0.939315378665924	3.1441053534112	3.81185943658539	0.824821955194561	9.45266168174511E-5	99.9782368106482
325	2.90883655087686		3.78492421095041		0.926237106323242	2.89894797646111	3.50225748416633	0.827736963820401	8.03016777040607E-5	99.9815115647195
320	2.71463460096926		3.56139315471469		0.914670467376709	2.70474602655351	3.25406483120964	0.831189962969506	5.75254298325972E-5	99.9867551574867
315	2.58067310370181		3.40844937847035		0.905307412147522	2.57078452928606	3.0822933520384	0.834049272949942	6.84586977427338E-5	99.9842380446359
310	2.44920837888532		3.25509031414174		0.899488806724548	2.43931980446957	2.9245380280486	0.834087223716905	3.23847420513497E-5	99.9925434155883
305	2.30628333917322		3.08950327134636		0.899677276611328	2.29639476475747	2.77617590678795	0.827179127641957	3.46903013616991E-5	99.9920125819325
300	2.11234120615911		2.86173336747133		0.907451450824738	2.10245263174336	2.59347490706207	0.810670126793342	-2.65998737624788E-6	100.000612486604
295	1.88987234962618		2.59565661194272		0.928298592567444	1.87998377521043	2.40605687025458	0.781354671392912	-2.0006298186063E-5	100.004606726503
290	1.62537807333929		2.27548815008729		0.961205065250397	1.61548949892355	2.18359960060607	0.739828629055968	-4.83502381619274E-5	100.011133673511
285	1.31681711509959		1.90089265597863		0.990005016326904	1.30692854068384	1.87817393168996	0.695850644411767	-5.35441914549403E-5	100.012329765759
280	1.05674333317981		1.58556131751695		1.00794303417206	1.04685475876406	1.59436876097788	0.656595126789855	5.22289674214134E-6	99.9987973908133
275	0.874478902755755		1.36341426090949		1.00567150115967	0.864590328340006	1.36736867608959	0.632302277694824	-6.81274967489622E-5	100.015688166308
270	0.77958551629411		1.25347478075796		0.977289319038391	0.769696941878361	1.22133595308059	0.630209026383727	-5.64234350446199E-5	100.012992820037
265	0.71526174518883		1.18206801468587		0.928679645061493	0.705373170773082	1.09427356334707	0.644604050028901	-1.32349656312138E-4	100.030479278557
260	0.640486716953681		1.08877628227056		0.865367650985718	0.630598142537932	0.938940688635298	0.671605938661018	-2.79097851957379E-4	100.064285309494
255	0.547621399484176		0.961731036196175		0.799651682376862	0.537732825068428	0.76604564310555	0.701959249958603	-4.35693153924159E-4	100.100372395542
250	0.448783579139367		0.819449048239315		0.732924580574036	0.438895004723618	0.597840837928527	0.734133529994966	-6.26086515696602E-4	100.144265710797
245	0.35187397289818		0.670789876470047		0.678074300289154	0.341985398482432	0.452297930171708	0.756106485724137	-7.92090311393517E-4	100.18255195791
240	0.260110302610553		0.515793176039578		0.640305876731873	0.250221728194804	0.327859847396063	0.763197232543484	-8.7964072138395E-4	100.202750021684
