Wavelength	I1	I1 dark	R1	R1dark	XCorrect	I1c	R1c	I1c/R1c	Abs	Percent T
nm	uA	uA	uA	uA		uA	uA	uA/uA	OD	T*100
	Abs Detector Raw	Dark Offset for Abs Detector	Ref Detector Raw	Dark Offset for Ref Detector	Linear interp	Dark subtracted Abs Detector	Corrected Ref Detector	Corrected Intensity 	-Log(T)	% Transmittance
600	0.902774062554802	0.00989417472700536	1.17066116536621	0.00373205658947281	0.984116673469543	0.892879887827797	1.14839439270415	0.777502827861529	3.1130470043146E-4	99.9283451281142
595	0.959061072217586		1.24634098012729		0.982812881469727	0.94916689749058	1.2212520566822	0.777208023763091	2.81089858884564E-4	99.9352976091444
590	1.01943022358769		1.32759782489538		0.982779562473297	1.00953604886069	1.30106822054905	0.775928604600503	2.8695570199589E-4	99.9339478318787
585	1.0701848980675		1.39648828665624		0.981987595558167	1.0602907233405	1.36766934156192	0.77525370432711	2.96473677493826E-4	99.9317577086243
580	1.10868563643905		1.44925094635752		0.980610847473145	1.09879146171205	1.41749150353388	0.775166171347554	2.75887260794075E-4	99.9364947836985
575	1.14953533598286		1.50540373971224		0.979297995567322	1.13964116125585	1.47058406928233	0.77495818502373	2.62011836987806E-4	99.9396877401561
570	1.19548442698578		1.56845981123763		0.978484988212585	1.18559025225877	1.5310626185628	0.77435778124586	2.78961430195284E-4	99.9357873820625
565	1.23919374382772		1.62843366048529		0.978631198406219	1.22929956910072	1.58998367767307	0.773152319965819	2.81619630796327E-4	99.9351757036549
560	1.29479579865926		1.70410293752668		0.979763388633728	1.28490162393225	1.66596113624115	0.771267465957417	2.83139500301021E-4	99.9348259682414
555	1.36295638798651		1.7964477479487		0.981100916862488	1.35306221325951	1.75883500846631	0.769294565292606	2.88237196162742E-4	99.9336529522807
550	1.43511344641401		1.89392985937559		0.982443392276764	1.425219271687	1.85701234144328	0.767479698373634	2.71928067008544E-4	99.9374058469726
545	1.50847011726347		1.99280013974224		0.982752025127411	1.49857594253646	1.95476068683468	0.766628852641336	2.69832434595466E-4	99.9378880832915
540	1.57669584330921		2.08459589376998		0.982404112815857	1.5668016685822	2.04424919185591	0.766443579786745	5.11544913724364E-4	99.8822817730553
535	1.65519425058832		2.18842494364806		0.983403861522675	1.64530007586131	2.14843542137454	0.765813139874911	2.50591020443828E-4	99.9423159288499
530	1.74388114415484		2.306408292786		0.985359311103821	1.73398696942784	2.26896346979375	0.764219870664316	2.59486882791419E-4	99.9402687833837
525	1.83879308530391		2.43218227177562		0.986455500125885	1.82889891057691	2.39555807155226	0.763454216491536	2.88686545855764E-4	99.9335495543907
520	1.94072379595619		2.56626366284142		0.98695296049118	1.93082962122918	2.52909815514258	0.763445901576853	2.78900073530106E-4	99.9358015008858
515	2.04795109228066		2.70646774797455		0.987989187240601	2.03805691755365	2.67027363905771	0.763238975864979	2.76197001398998E-4	99.9364235086061
510	2.15162228205196		2.8411708724363		0.989577054977417	2.14172810732495	2.80786434706432	0.76276053348666	2.72921942227776E-4	99.9371771422535
505	2.29137007873476		3.02172760755468		0.991617441177368	2.28147590400776	2.9926970257328	0.762347770051701	2.809939408485E-4	99.9353196808007
500	2.47961995225013		3.26359973793586		0.993805527687073	2.46972577752313	3.23967452125048	0.762337624141896	2.79227209526697E-4	99.9357262234253
495	2.90058236878094		3.81083582949921		0.99499124288559	2.89068819405393	3.78803491480188	0.763110229728471	2.850673889768E-4	99.9343823457693
490	3.09183649643469		4.04896200530552		0.99444317817688	3.08194232170769	4.02275132665748	0.7661279734804	2.74288720211264E-4	99.9368626281986
485	3.50686824526459		4.57803054323053		0.996731162071228	3.49697407053758	4.5593458462504	0.766990307044483	2.80238971534851E-4	99.9354934066213
480	3.7825580146708		4.91566171131502		0.998985171318054	3.7726638399438	4.90694488762823	0.768841698111534	2.97239844196284E-4	99.9315814127677
475	4.72828504702467		6.12454808343767		1.00243234634399	4.71839087229767	6.13570397133336	0.769005625816121	2.66215652762124E-4	99.9387203642857
470	5.98375152638308		7.70410077243859		1.00769698619843	5.97385735165607	7.75963834757779	0.769862857528771	2.78553775448605E-4	99.935881187807
465	6.09944361088173		7.81475172170348		1.01307439804077	6.08954943615473	7.91314404532	0.769548665015926	3.24588137284092E-4	99.9252887421414
460	5.72987772368657		7.32761603273201		1.01598358154297	5.71998354895957	7.44094587288645	0.768717263460042	3.00008490572695E-4	99.9309443465824
455	5.30126036944221		6.79204689180563		1.01623702049255	5.2913661947152	6.89853684230547	0.767027315454163	2.96188777562673E-4	99.9318232645119
450	4.60579170767038		5.93116007639791		1.01419520378113	4.59589753294338	6.01156906844759	0.764508813026116	2.93227922864764E-4	99.9325045640203
445	3.66958532225112		4.7612974052912		1.01049888134003	3.65969114752412	4.80751446276517	0.761243918425811	2.83075682507589E-4	99.9348406532554
440	3.48149101392068		4.53927844865881		1.00642335414886	3.47159683919367	4.56467981280421	0.760534578888892	2.7790507507724E-4	99.9360304609255
435	3.51491600158009		4.57713036501147		1.00416374206543	3.50502182685308	4.59244075934074	0.763215468751358	2.93607716919429E-4	99.9324171722709
430	3.8307202996346		4.95814209200465		1.00603294372559	3.8208261249076	4.98429971235231	0.766572306123297	2.79757226413042E-4	99.9356042610419
425	3.93530437148233		5.08162106612063		1.00844466686249	3.92541019675533	5.12077009058133	0.766566381094781	2.48140765731918E-4	99.942879796989
420	3.58152124789598		4.65831946136674		1.00632703304291	3.57162707316897	4.6840371330884	0.762510409650412	2.54911968111527E-4	99.9413215727468
415	3.17559381055314		4.18699684117974		1.00108110904694	3.16569963582614	4.18778734999462	0.75593609972345	2.5803542505424E-4	99.9406027948088
410	2.82791321868069		3.77287273150638		0.99567312002182	2.81801904395368	3.75283205559566	0.750904650729539	2.8439776777906E-4	99.9345364306937
405	2.6299986052137		3.53634236868197		0.991254270076752	2.6201044304867	3.50171505637886	0.748234618837365	2.50844134754965E-4	99.9422576807622
400	2.68340827785185		3.61363323751376		0.991591811180115	2.67351410312484	3.57954845017395	0.746885854553784	2.54683870866764E-4	99.9413740632734
395	2.71646757947756		3.64183229257686		0.998634338378906	2.70657340475056	3.63313182212141	0.744969777388967	2.57981104853192E-4	99.9406152950689
390	2.71952452038332		3.61740894306508		1.01226460933685	2.70963034565631	3.65799722175784	0.740741499074787	2.40914177918265E-4	99.944542843692
385	2.80850843848479		3.70262013413084		1.03263711929321	2.79861426375778	3.81960912898033	0.732696506174937	2.46800143534535E-4	99.9431883108097
380	2.87275181957574		3.75855918420029		1.05682492256165	2.86285764484873	3.96819488836967	0.721450867556794	2.77828848779973E-4	99.9360480014528
375	2.87759402902905		3.74472030974387		1.07931578159332	2.86769985430204	4.03770766038477	0.71022968860226	3.17070662159535E-4	99.9270184265034
370	2.90530517637926		3.76765624471081		1.09493815898895	2.89541100165225	4.12126422111557	0.702554082025952	3.60710414996029E-4	99.9169778400362
365	2.97098449252306		3.84375732106689		1.09079897403717	2.96109031779606	4.18869561876877	0.706924204405772	4.2398602450237E-4	99.9024212490904
360	3.07824304189917		3.9734125915449		1.06893277168274	3.06834886717216	4.24332161692493	0.723100708401111	3.97881045536832E-4	99.908426457759
355	3.18715333687414		4.10352796944295		1.0409619808197	3.17725916214713	4.26773167440048	0.744484284521816	3.63910149095849E-4	99.9162416884231
350	3.26337507729223		4.19094630649599		1.01178658008575	3.25348090256522	4.23656718599925	0.767952155536946	3.19970918125968E-4	99.9263511074935
345	3.31911556046794		4.25237372568413		0.987797260284424	3.30922138574093	4.19679660066195	0.788511262427867	3.14065750972103E-4	99.9277098303018
340	3.35219767703497		4.28719620357233		0.968130171298981	3.34230350230796	4.14695087837156	0.805966504146398	2.94696406743081E-4	99.9321666619057
335	3.31935132950996		4.24922129893892		0.952541172504425	3.30945715478296	4.04400330076246	0.818361635401976	2.91028704045814E-4	99.9330106123591
330	3.13855691128707		4.04371765474054		0.939315378665924	3.12866273656006	3.79482060193215	0.824456032247504	2.87239210480937E-4	99.9338825947779
325	2.89687032778015		3.77078727741315		0.926237106323242	2.88697615305314	3.48918632709558	0.827406702426315	2.53616787281221E-4	99.9416196246039
320	2.70414839739788		3.54907846726389		0.914670467376709	2.69425422267088	3.24282365846391	0.830835872200067	2.42576307301049E-4	99.9441603372354
315	2.5691023420293		3.3944692540145		0.905307412147522	2.55920816730229	3.06965951747319	0.833710759364257	2.44760541512271E-4	99.9436576808251
310	2.43845586427985		3.24231179612639		0.899488806724548	2.42856168955284	2.91306622539836	0.833678846151442	2.45071796864139E-4	99.9435860520375
305	2.29649339170257		3.07793126455666		0.899677276611328	2.28659921697557	2.76578717118462	0.826744458430685	2.62964988105889E-4	99.9394684016093
300	2.10286728407783		2.85025937093514		0.907451450824738	2.09297310935082	2.58308534121522	0.810260921679875	2.16615874713316E-4	99.9501347884292
295	1.88225848002769		2.58671538883392		0.928298592567444	1.87236430530069	2.39777979194768	0.780874170175483	2.47149227694732E-4	99.9431079769087
290	1.61713774500308		2.26537784128979		0.961205065250397	1.60724357027607	2.17390538405616	0.739334647250019	2.41724000289443E-4	99.9443564787839
285	1.31159073572594		1.89471972631579		0.990005016326904	1.30169656099893	1.87208727884138	0.695318308986397	2.78824279648278E-4	99.9358189418696
280	1.05244248236691		1.58049155801572		1.00794303417206	1.04254830763991	1.5892837560272	0.655986260279922	4.08134879268151E-4	99.9060676152171
275	0.870572082703006		1.3589266553366		1.00567150115967	0.860677907976001	1.3628805864855	0.631513807233441	4.73768462692553E-4	99.8909702606859
270	0.776072426708538		1.24932909107726		0.977289319038391	0.766178251981533	1.21730867763081	0.629403425820235	4.99093345428922E-4	99.885145518587
265	0.712524970297422		1.17893857927357		0.928679645061493	0.702630795570417	1.09139037636022	0.643794201222195	4.13619594899857E-4	99.9048059070133
260	0.637288274583649		1.08477011712543		0.865367650985718	0.627394099856643	0.93549536707216	0.67065441683609	3.3664073483316E-4	99.9225156408732
255	0.544699494893801		0.958000439287253		0.799651682376862	0.534805320166795	0.763082317663327	0.700848791522846	2.51879282938041E-4	99.9420194669983
250	0.446145680895512		0.815871328527048		0.732924580574036	0.436251506168507	0.59523683525255	0.732904081756654	1.01833077376949E-4	99.9765548162187
245	0.349972511876725		0.668215349502795		0.678074300289154	0.34007833714972	0.450569043896034	0.754775193184801	-2.67449354647237E-5	100.006158438595
240	0.258874278750746		0.514116079336074		0.640305876731873	0.24898010402374	0.326801889154703	0.761868619143377	-1.22939476533457E-4	100.028311867654
