Wavelength	I1	I1 dark	R1	R1dark	XCorrect	I1c	R1c	I1c/R1c	Abs	Percent T
nm	uA	uA	uA	uA		uA	uA	uA/uA	OD	T*100
	Abs Detector Raw	Dark Offset for Abs Detector	Ref Detector Raw	Dark Offset for Ref Detector	Linear interp	Dark subtracted Abs Detector	Corrected Ref Detector	Corrected Intensity 	-Log(T)	% Transmittance
600	0.900213787296478	0.00989343761687036	1.17325402424257	0.00376025075172893	0.984116673469543	0.890320349679607	1.15091832201115	0.773573878052295	0.00251148585816686	99.4233778939653
595	0.956991213217067		1.25015049366187		0.982812881469727	0.947097775600197	1.22496838607027	0.773160994495957	0.00254842937642996	99.4149207449353
590	1.0169635860243		1.33155506059734		0.982779562473297	1.00707014840743	1.30492960227438	0.771742894522583	0.00263607852666706	99.3948588872436
585	1.06767092346817		1.40095377369894		0.981987595558167	1.0577774858513	1.37202670812838	0.770959835974512	0.00270857016567326	99.3782694641315
580	1.10554352768696		1.45350344756123		0.980610847473145	1.09565009007009	1.42163390484179	0.770697776930145	0.00278659261152034	99.3604174316507
575	1.14565189361556		1.5096807514139		0.979297995567322	1.13575845599869	1.4747449277822	0.770138913246985	0.00297121364585099	99.3181877343356
570	1.18988124829723		1.57115295148565		0.978484988212585	1.17998781068036	1.53367022830213	0.769388222386425	0.00307509426605062	99.294434263921
565	1.23477472345964		1.63327470660852		0.978631198406219	1.22488128584277	1.59469368475539	0.768098160513284	0.00312995798556738	99.2818913509084
560	1.29070301974495		1.7097405339397		0.979763388633728	1.28080958212808	1.67145702319857	0.766283287186808	0.00309879799422314	99.2890149363744
555	1.35817758734643		1.80177007519794		0.981100916862488	1.34828414972956	1.76402908729194	0.764320815026572	0.00310521451122827	99.2875479940738
550	1.43124185951541		1.90148790561004		0.982443392276764	1.42134842189854	1.86440999485642	0.762358293411745	0.00317969507941415	99.2705218534709
545	1.50307801096177		1.99923461725559		0.982752025127411	1.4931845733449	1.96105647477151	0.761418445901144	0.00323159895589642	99.2586584353652
540	1.57063145429536		2.09120578326993		0.982404112815857	1.56073801667849	2.05071507642497	0.761070143103124	0.00356705072258064	99.1820200302766
535	1.64776909131623		2.19507480079923		0.983403861522675	1.63787565369936	2.15494719032753	0.760053731734567	0.00352910908721435	99.1906853313134
530	1.73547397072652		2.31265256155988		0.985359311103821	1.72558053310965	2.27508853679083	0.758467420148714	0.00354088210629172	99.1879964691444
525	1.82957614686418		2.43871291628077		0.986455500125885	1.81968270924731	2.40197244945731	0.757578509969354	0.00364403790502681	99.1644396376233
520	1.92999928855275		2.57273632638977		0.98695296049118	1.92010585093588	2.53545854328198	0.757301221123667	0.00378851097053084	99.1314569300555
515	2.03710316324686		2.71470475233617		0.987989187240601	2.02720972562999	2.67838385477479	0.756877966545406	0.00391087443239695	99.1035303501002
510	2.13828469909744		2.8481626058068		0.989577054977417	2.12839126148057	2.81475530568623	0.756154986964905	0.00405031502443774	99.0717159078494
505	2.27775433416026		3.03090961191252		0.991617441177368	2.26786089654339	3.00177410357597	0.755506849713215	0.00419572204710917	99.0385510565663
500	2.46464067984905		3.27427654453382		0.993805527687073	2.45474724223218	3.25025717115128	0.755247081375617	0.00433752589138023	99.0062187214653
495	2.88349368476719		3.82505622006739		0.99499124288559	2.87360024715032	3.80215602594309	0.755781779480644	0.00447592517434472	98.9746728299778
490	3.07285490471367		4.06498680504618		0.99444317817688	3.0629614670968	4.03865904194891	0.758410510835973	0.00467126538552132	98.9301652736684
485	3.48195191479774		4.59311025752574		0.996731162071228	3.47205847718087	4.57434816540346	0.759028030144407	0.00481230024171317	98.8980434371225
480	3.75159989223591		4.92878553450476		0.998985171318054	3.74170645461904	4.92002722683577	0.760505233428444	0.00503196209106388	98.8480344339564
475	4.69032713213728		6.14489613999699		1.00243234634399	4.68043369452041	6.15607325867344	0.760295321035376	0.00521341484940489	98.8067433220544
470	5.93074830882143		7.72690411219122		1.00769698619843	5.92085487120456	7.78258879314944	0.76078218039945	0.00543158944236164	98.7571186824776
465	6.04047294217205		7.83595741986093		1.01307439804077	6.03057950455518	7.93459843243194	0.760035880316986	0.00572658200650332	98.690061132769
460	5.67553524343496		7.35345410391783		1.01598358154297	5.66564180581809	7.46716828418404	0.758740340406992	0.00597346775767537	98.6339741993571
455	5.24783653420646		6.8167290743242		1.01623702049255	5.23794309658959	6.92359113797594	0.756535588570423	0.00627765643636092	98.5649131485864
450	4.55329460094656		5.94941762759449		1.01419520378113	4.54340116332969	6.03005719491981	0.753459049635119	0.00661607065087598	98.4881385715193
445	3.62922871352566		4.78074822796739		1.01049888134003	3.61933527590879	4.82714100715118	0.749788595474406	0.00686808138359162	98.4310048312923
440	3.43728054778874		4.55339307262585		1.00642335414886	3.42738711017187	4.57885672473632	0.748524646262926	0.00719076509575433	98.357897097817
435	3.47020098955173		4.59701767206091		1.00416374206543	3.46030755193486	4.61238256045163	0.750221280776856	0.00775139253924393	98.2310095532571
430	3.76881993611241		4.96927203336643		1.00603294372559	3.75892649849554	4.99546843576794	0.752467270452824	0.00834526824657802	98.0967754231194
425	3.87082669840013		5.09828400062436		1.00844466686249	3.86093326078326	5.13754530576333	0.751513228788861	0.0088612796542343	97.9802899566574
420	3.51936965878886		4.67478500085173		1.00632703304291	3.50947622117199	4.70057847803812	0.746605175845661	0.00940969258467659	97.8566417228034
415	3.11471520239796		4.20200456328774		1.00108110904694	3.10482176478109	4.20278307244354	0.738753752278705	0.0102434212280408	97.668963483383
410	2.76847850456271		3.78419537306269		0.99567312002182	2.75858506694584	3.76407763327143	0.732871459016189	0.010841383072011	97.5345797218243
405	2.57264655466162		3.55016835739626		0.991254270076752	2.56275311704475	3.5153921791462	0.729009164965252	0.0115556538988027	97.3742994273712
400	2.6224502605173		3.63144639662227		0.991591811180115	2.61255682290043	3.59718387577678	0.726278364721145	0.0124058111299945	97.1838699047574
395	2.64468688884642		3.6533251685075		0.998634338378906	2.63479345122955	3.6445808470139	0.722934560057379	0.0132976485637372	96.9845045304175
390	2.6450078507592		3.63340775647771		1.01226460933685	2.63511441314233	3.6741637144142	0.717201142345521	0.0142666176646753	96.7683603365387
385	2.72269185679644		3.71580191142192		1.03263711929321	2.71279841917957	3.83319200717086	0.707712635867095	0.0153139709843251	96.5352729817946
380	2.7791079063757		3.77383837115095		1.05682492256165	2.76921446875883	3.98431251764227	0.695029432680528	0.0164813926282946	96.2761261650515
375	2.77481784291628		3.75870267541065		1.07931578159332	2.76492440529941	4.05276861790867	0.682231004524058	0.0177844407549659	95.9876941984406
370	2.79241552351003		3.78087575149393		1.09493815898895	2.78252208589316	4.1357078926713	0.67280430777617	0.0191517084413271	95.6859761128955
365	2.84515972007662		3.85601453781478		1.09079897403717	2.83526628245975	4.20203502405867	0.674736470835317	0.0206626525043594	95.3536556273049
360	2.93519817430668		3.98317961787306		1.06893277168274	2.92530473668981	4.25373177378498	0.687703149201359	0.0221956549327552	95.0176631117897
355	3.02810253184561		4.11419832340422		1.0409619808197	3.01820909422874	4.27880975814506	0.705385204023931	0.0237930989396068	94.6688063052424
350	3.0903422508352		4.20448718778954		1.01178658008575	3.08044881321833	4.25023914149959	0.724770703638916	0.025453504492031	94.3075571597417
345	3.13026129852725		4.2660182910593		0.987797260284424	3.12036786091038	4.21024681484108	0.741136564704738	0.0272237264124808	93.923933761462
340	3.1496699703247		4.30302970692703		0.968130171298981	3.13977653270783	4.16225247506747	0.754345526013995	0.0290413704646583	93.531657256814
335	3.10207998272189		4.26204970953219		0.952541172504425	3.09218654510502	4.05619603392997	0.76233656343011	0.0310895402233376	93.0915925036368
330	2.91962940239624		4.05684569912168		0.939315378665924	2.90973596477937	3.80712549270096	0.764286853784548	0.0331983496302675	92.6406621183023
325	2.68150105617978		3.7832015571487		0.926237106323242	2.67160761856291	3.50065877915566	0.76317281606272	0.0353497588125533	92.1828733887622
320	2.48799584088854		3.55692048139272		0.914670467376709	2.47810240327167	3.24997072882473	0.762499914627789	0.0375180162959741	91.7237883854118
315	2.35032810950504		3.4027649375751		0.905307412147522	2.34043467188817	3.07714413690536	0.760586624402296	0.0401114831304112	91.1776756771653
310	2.21740674162796		3.24943570478933		0.899488806724548	2.20751330401109	2.91944874116744	0.756140456546718	0.0426413784227922	90.6480824542548
305	2.07586211817011		3.08481840075961		0.899677276611328	2.06596868055324	2.77195800548023	0.745310237914415	0.0452971706253244	90.095443896693
300	1.88758025490877		2.85633010333276		0.907451450824738	1.8776868172919	2.58856865130357	0.725376480297838	0.0482780397149704	89.4791727432831
295	1.67824687195617		2.59305986634763		0.928298592567444	1.6683534343393	2.4036431888931	0.694093633384741	0.0514101458345058	88.8361756566578
290	1.43201191444398		2.27193066841205		0.961205065250397	1.42211847682711	2.18017689430621	0.652294995209399	0.0546387365329194	88.1782069500235
285	1.15165153226346		1.89949083225376		0.990005016326904	1.14175809464659	1.87678278529133	0.608359211089715	0.0583024015373199	87.4374731476686
280	0.91741901794062		1.58398311867072		1.00794303417206	0.90752558032375	1.59277463215834	0.569776515773597	0.0615983328451543	86.7764076127893
275	0.752677901045182		1.36139682744587		1.00567150115967	0.742784463428312	1.36533641411327	0.544030361858268	0.0652334807761451	86.0530998290686
270	0.666326789940029		1.25224119311641		0.977289319038391	0.656433352323158	1.22012708999599	0.538004079825256	0.0686426267311232	85.3802403965428
265	0.606881739670967		1.18119242814152		0.928679645061493	0.596988302054097	1.09345729658233	0.545963984071461	0.0719966858993318	84.7233879356641
260	0.539176024456887		1.0875209404787		0.865367650985718	0.529282586840017	0.93785144229969	0.564356531288337	0.0752818743783579	84.0849219941396
255	0.457569286043958		0.961189645817479		0.799651682376862	0.447675848427088	0.765610026521388	0.584730911193966	0.0789201551322855	83.3834470664105
250	0.371220530743238		0.818530694361149		0.732924580574036	0.361327093126368	0.597165285646555	0.605070491890963	0.0833429997367794	82.5385813860137
245	0.287763984903619		0.670288161384161		0.678074300289154	0.277870547286748	0.451955446625278	0.614818450273339	0.0890439811564327	81.4621782806169
240	0.208922252735745		0.515142691575625		0.640305876731873	0.199028815118874	0.327441182117029	0.607830737209286	0.0979744881609631	79.804156539061
